*TYPE		=  Raw
*CLASS		=  ASCII CLASS
*SAMPLE		=  JC170705CuPcAuCrSi5
*COMMENT	=   
*FNAME		=  JC170705CuPcAuCrSi5_Theta_2-Theta.asc
*DATE		=  12-Jul-17 17:31

*GROUP_COUNT	=  1
*GONIO		=  SmartLab, 0.000000
*ATTACHMENT	=  Standard Z stage
*ASC		=  0, 0, 0.000000, 0.000000
*I_MONOCHRO	=  Soller_slit_5.0deg, 0.000000
*FILTER		=  Cu_K-beta
*C_MONOCHRO	=  None, 0.000000
*SLIT_NAME	=  0, Incident slit
*SLIT_NAME	=  1, Receiving slit # 1
*SLIT_NAME	=  2, Receiving slit # 2
*COUNTER	=  SC-70, 0
*POS_FORMAT	=  0
*SCAN_AXIS	=  2theta/theta
*MEAS_MODE	=  Continuous Scanning
*TARGET		=  29
*XRAY_CHAR	=  K-ALPHA
*WAVE_LENGTH1	=  1.54059
*WAVE_LENGTH2	=  1.54441
*THICKNESS	=  0, 0.000000
*MU		=  0, 0.000000
*SCAN_MODE	=  2theta/theta
*SPEED_DIM	=  sec./step
*XUNIT		=  deg.
*YUNIT		=  counts
*SCALE_MODE	=  1
*REP_COUNT	=  0
*SE_COUNT	=  0
*STD_MATERIAL	=  Unknown, Unknown, 0.000000, 0.000000, 0.000000, 0.000000, 0.000000, 0.000000
*LATT_CONS	=  0, Unknown, Unknown, 0.000000, 0.000000, 0.000000, 0.000000, 0.000000, 0.000000
*SEC_COUNT	=  1
*TSPEC_SIZE	=  0
*EXTRA_SIZE	=  0
*MEMO		=  Pre CuPc

*BEGIN
*GROUP		=  0
*START		=  4
*STOP		=  80
*STEP		=  0.01
*OFFSET		=  0.000000
*SPEED		=  0.6
*SLIT_SPEC	=  0, 2/3deg, 2, 0.000000
*SLIT_SPEC	=  1, 2/3deg, 2, 0.000000
*SLIT_SPEC	=  2, 0.300mm, 0.3, 0.000000
*KV		=  40
*MA		=  44
*LOW		=  0.000000
*HIGH		=  0.000000
*CTEMPER	=  0, 0.000000
*CTEMPER	=  1, 0.000000
*CTEMPER	=  2, 0.000000
*PAREX		=  0, 0.000000
*PAREX		=  1, 0.000000
*PAREX		=  2, 0.000000
*PAREX		=  3, 0.000000
*PAREX		=  4, 0.000000
*PAREX		=  5, 0.000000
*PAREX		=  6, 0.000000
*PAREX		=  7, 0.000000
*PAREX		=  8, 0.000000
*PAREX		=  9, 0.000000
*PAREX		=  10, 0.000000
*PAREX		=  11, 0.000000
*PAREX		=  12, 0.000000
*PAREX		=  13, 0.000000
*PAREX		=  14, 0.000000
*PAREX		=  15, 0.000000
*FULL_SCALE	=  1435138
*INDEX		=  0, 0, 0
*COUNT		=  7601
767, 794, 798, 809
805, 785, 758, 797
739, 736, 794, 716
776, 726, 743, 780
741, 750, 736, 758
737, 703, 748, 700
778, 703, 715, 722
717, 713, 732, 730
716, 700, 718, 659
720, 691, 729, 747
734, 699, 717, 679
764, 677, 703, 652
690, 689, 636, 703
729, 719, 742, 676
695, 685, 709, 686
657, 690, 717, 675
671, 735, 660, 663
696, 745, 655, 697
654, 695, 686, 685
659, 703, 666, 678
642, 692, 699, 642
674, 663, 670, 643
640, 678, 635, 660
646, 651, 637, 666
656, 593, 653, 651
650, 663, 686, 666
629, 621, 660, 653
619, 611, 656, 608
615, 689, 655, 670
660, 658, 618, 662
673, 627, 657, 620
628, 604, 684, 638
581, 625, 614, 624
621, 594, 618, 629
628, 645, 620, 672
587, 626, 658, 588
616, 599, 576, 627
621, 578, 614, 620
616, 619, 638, 623
622, 620, 607, 601
597, 621, 597, 578
595, 607, 607, 614
579, 626, 598, 605
584, 595, 604, 565
665, 587, 619, 631
582, 601, 577, 579
536, 568, 544, 573
591, 610, 609, 556
577, 578, 535, 559
566, 541, 638, 605
551, 576, 581, 590
562, 546, 548, 587
569, 585, 580, 556
545, 590, 590, 598
555, 572, 553, 586
636, 572, 558, 566
545, 577, 544, 528
597, 616, 535, 528
595, 557, 552, 561
588, 577, 566, 597
505, 582, 572, 567
566, 554, 576, 572
592, 524, 567, 564
540, 565, 559, 526
571, 528, 585, 603
552, 571, 552, 594
540, 527, 575, 543
554, 571, 571, 494
547, 549, 547, 517
542, 544, 557, 593
584, 552, 558, 583
532, 527, 528, 504
547, 528, 556, 517
536, 601, 530, 534
553, 541, 589, 521
567, 505, 483, 534
538, 548, 581, 530
536, 492, 531, 508
533, 507, 530, 510
530, 568, 508, 523
559, 502, 559, 524
514, 520, 575, 504
526, 538, 528, 514
539, 505, 485, 546
552, 532, 569, 512
526, 552, 504, 537
513, 513, 528, 514
506, 496, 475, 567
520, 519, 481, 554
575, 529, 558, 494
532, 500, 497, 487
520, 533, 543, 522
551, 544, 534, 491
506, 550, 497, 549
545, 479, 519, 508
501, 499, 532, 502
517, 536, 542, 520
495, 492, 521, 511
493, 514, 534, 521
496, 534, 536, 521
492, 539, 502, 554
489, 508, 530, 468
497, 501, 511, 480
542, 503, 522, 510
553, 496, 537, 519
497, 496, 476, 517
468, 505, 527, 482
516, 480, 488, 516
464, 487, 482, 513
529, 509, 529, 509
519, 499, 472, 514
513, 501, 484, 509
508, 480, 504, 528
519, 524, 518, 533
505, 539, 525, 547
484, 539, 533, 552
525, 501, 517, 524
548, 533, 493, 529
552, 532, 509, 576
574, 564, 528, 538
514, 529, 605, 557
526, 506, 560, 573
557, 552, 578, 590
542, 557, 557, 546
591, 633, 561, 585
528, 554, 546, 544
565, 572, 542, 606
618, 531, 611, 574
547, 563, 540, 577
528, 578, 631, 561
587, 560, 549, 578
571, 588, 601, 564
562, 591, 537, 546
542, 542, 576, 565
567, 570, 567, 584
536, 602, 554, 590
576, 537, 548, 602
587, 618, 583, 556
573, 550, 590, 568
569, 565, 549, 575
537, 531, 571, 570
578, 605, 567, 549
593, 574, 540, 590
544, 583, 561, 583
602, 531, 535, 533
567, 605, 590, 531
537, 585, 562, 539
551, 554, 572, 584
523, 570, 587, 567
567, 559, 607, 526
571, 565, 516, 581
497, 539, 545, 552
551, 521, 573, 558
517, 547, 532, 549
537, 502, 550, 511
536, 523, 567, 510
484, 500, 526, 531
491, 505, 495, 471
494, 498, 458, 545
497, 506, 465, 483
505, 510, 459, 488
509, 471, 464, 449
470, 438, 440, 454
451, 474, 472, 490
391, 475, 465, 446
441, 491, 444, 443
459, 501, 477, 474
449, 454, 453, 448
493, 455, 459, 476
468, 461, 442, 432
418, 473, 434, 468
456, 455, 481, 446
449, 447, 442, 442
429, 432, 477, 458
457, 470, 481, 442
430, 466, 510, 469
437, 435, 456, 480
483, 460, 458, 428
427, 438, 481, 464
398, 440, 427, 473
445, 419, 470, 415
412, 479, 443, 485
429, 458, 437, 426
479, 446, 431, 452
479, 412, 437, 452
452, 435, 450, 446
452, 493, 454, 439
446, 468, 473, 425
445, 471, 450, 467
471, 395, 415, 452
430, 447, 453, 448
458, 463, 420, 467
450, 430, 461, 422
440, 437, 440, 486
448, 460, 476, 403
407, 443, 426, 412
449, 424, 463, 451
435, 475, 452, 441
421, 410, 418, 451
452, 438, 428, 432
448, 431, 439, 432
423, 454, 439, 469
425, 422, 468, 410
437, 442, 450, 417
451, 481, 441, 430
415, 430, 430, 455
438, 440, 415, 420
468, 463, 448, 456
431, 426, 429, 491
429, 478, 433, 392
461, 427, 407, 443
409, 449, 421, 444
416, 432, 431, 422
472, 381, 429, 421
399, 464, 443, 455
423, 447, 408, 387
410, 429, 415, 399
442, 436, 436, 447
433, 436, 434, 402
440, 441, 425, 446
491, 455, 439, 419
427, 447, 406, 454
410, 446, 456, 455
369, 420, 440, 443
436, 415, 421, 429
445, 399, 432, 453
440, 417, 410, 365
460, 465, 445, 411
419, 437, 455, 458
427, 426, 444, 406
444, 412, 466, 458
398, 471, 447, 411
435, 433, 444, 412
441, 431, 414, 461
448, 390, 457, 413
423, 407, 433, 439
415, 435, 471, 422
410, 422, 447, 398
423, 421, 460, 455
427, 434, 440, 416
426, 444, 450, 424
434, 450, 411, 469
428, 419, 430, 449
460, 455, 402, 438
438, 408, 410, 438
429, 476, 465, 479
440, 464, 452, 486
471, 457, 460, 469
449, 473, 452, 440
476, 430, 425, 441
432, 469, 481, 461
444, 473, 477, 452
462, 494, 472, 429
462, 462, 458, 420
525, 505, 482, 463
461, 493, 497, 496
512, 464, 486, 477
456, 467, 466, 454
517, 524, 467, 510
476, 482, 455, 478
530, 522, 488, 499
500, 490, 464, 467
513, 500, 512, 506
530, 531, 502, 510
530, 500, 526, 505
497, 519, 546, 528
560, 516, 553, 503
564, 533, 480, 566
501, 529, 525, 547
544, 545, 568, 531
591, 519, 577, 543
577, 559, 592, 594
588, 630, 561, 594
573, 594, 582, 575
573, 587, 614, 574
590, 606, 606, 575
585, 609, 592, 628
614, 593, 659, 655
586, 634, 654, 604
633, 608, 634, 630
629, 623, 665, 623
684, 608, 664, 632
646, 614, 632, 605
637, 625, 694, 677
661, 689, 664, 688
636, 668, 714, 737
644, 645, 695, 681
710, 661, 720, 644
724, 734, 733, 727
704, 691, 702, 748
675, 781, 731, 712
767, 693, 721, 736
771, 714, 747, 698
744, 737, 647, 644
607, 597, 582, 617
583, 594, 530, 525
473, 405, 451, 480
428, 434, 415, 420
413, 420, 414, 401
408, 403, 431, 421
432, 421, 381, 433
428, 397, 447, 421
416, 411, 396, 394
383, 438, 427, 442
413, 407, 440, 380
420, 433, 409, 407
397, 411, 388, 425
409, 407, 429, 418
425, 390, 440, 414
407, 423, 466, 413
399, 421, 430, 427
416, 414, 414, 413
450, 385, 414, 399
445, 402, 420, 427
447, 414, 438, 416
421, 410, 428, 418
442, 443, 439, 435
409, 426, 433, 437
390, 416, 418, 467
405, 416, 410, 413
418, 401, 393, 409
416, 380, 427, 456
442, 415, 406, 402
439, 429, 435, 436
382, 426, 406, 397
439, 389, 429, 463
423, 399, 399, 402
402, 412, 446, 417
403, 460, 391, 437
450, 433, 430, 429
493, 434, 407, 442
425, 393, 446, 448
432, 453, 463, 391
439, 404, 447, 400
447, 429, 402, 399
411, 434, 431, 423
441, 404, 402, 390
433, 413, 440, 438
419, 429, 410, 450
438, 413, 453, 418
443, 443, 389, 429
432, 408, 430, 432
401, 431, 399, 407
472, 442, 389, 405
394, 432, 371, 413
412, 436, 393, 421
408, 420, 378, 417
421, 470, 386, 417
422, 414, 426, 435
382, 411, 415, 414
387, 378, 402, 420
419, 426, 435, 456
412, 403, 424, 430
413, 420, 412, 426
441, 368, 393, 411
415, 403, 394, 426
438, 451, 388, 421
419, 426, 435, 387
401, 407, 403, 401
379, 423, 427, 423
382, 428, 395, 401
376, 462, 423, 388
389, 382, 385, 420
410, 414, 386, 391
422, 421, 401, 402
414, 415, 432, 436
383, 388, 401, 386
408, 407, 414, 390
391, 441, 403, 404
381, 428, 405, 405
404, 417, 426, 410
414, 434, 428, 387
422, 426, 411, 423
409, 426, 438, 414
444, 418, 424, 382
400, 386, 393, 442
377, 394, 374, 461
426, 404, 407, 400
401, 435, 407, 404
407, 390, 449, 408
369, 394, 410, 414
399, 438, 402, 376
419, 415, 431, 358
384, 386, 376, 388
398, 421, 395, 380
371, 421, 421, 398
399, 391, 382, 366
375, 448, 382, 427
402, 367, 421, 418
421, 418, 402, 397
401, 395, 397, 367
403, 416, 381, 386
398, 405, 402, 391
370, 400, 395, 412
423, 378, 427, 396
379, 436, 404, 399
418, 427, 405, 403
373, 403, 387, 385
428, 395, 425, 383
408, 384, 386, 389
411, 399, 383, 405
388, 401, 402, 382
352, 348, 402, 399
404, 379, 409, 421
405, 349, 421, 373
428, 382, 385, 393
411, 412, 409, 403
395, 392, 379, 370
379, 392, 395, 401
411, 424, 390, 378
391, 401, 410, 386
393, 382, 358, 355
392, 363, 396, 399
350, 357, 365, 345
392, 396, 379, 362
394, 363, 306, 390
360, 370, 382, 370
396, 376, 372, 410
414, 398, 385, 388
389, 360, 369, 380
350, 351, 350, 349
362, 356, 373, 348
401, 327, 415, 354
377, 381, 409, 384
343, 361, 352, 364
371, 364, 373, 397
335, 385, 321, 365
403, 385, 359, 349
378, 366, 352, 357
402, 366, 360, 392
348, 364, 335, 346
355, 350, 349, 354
370, 384, 339, 371
382, 347, 349, 354
354, 336, 340, 366
328, 372, 324, 302
348, 367, 366, 387
374, 396, 375, 381
335, 341, 361, 374
398, 357, 360, 329
345, 357, 322, 366
342, 339, 347, 385
338, 357, 376, 359
384, 362, 362, 362
351, 332, 326, 365
369, 345, 381, 341
333, 317, 372, 357
333, 354, 358, 357
392, 336, 350, 354
346, 343, 345, 378
363, 359, 328, 326
334, 391, 332, 344
366, 340, 330, 369
342, 370, 326, 372
349, 371, 355, 343
371, 355, 331, 350
339, 354, 381, 371
362, 357, 349, 391
347, 338, 347, 349
363, 360, 330, 355
369, 364, 339, 332
328, 325, 343, 359
341, 364, 375, 387
401, 354, 357, 377
372, 329, 376, 336
324, 358, 355, 335
314, 336, 335, 349
365, 354, 369, 349
372, 330, 362, 340
349, 334, 351, 344
374, 330, 375, 357
362, 355, 341, 346
361, 365, 319, 353
339, 356, 333, 355
353, 347, 342, 367
334, 360, 359, 357
346, 368, 368, 372
371, 378, 334, 359
357, 319, 343, 354
297, 329, 357, 368
382, 344, 336, 359
348, 390, 383, 320
370, 330, 340, 358
342, 373, 357, 376
336, 323, 352, 346
352, 316, 386, 353
357, 339, 346, 355
358, 367, 329, 351
360, 353, 358, 359
336, 314, 347, 354
358, 353, 377, 344
361, 345, 371, 325
369, 381, 361, 344
376, 329, 356, 357
341, 367, 345, 336
356, 347, 334, 332
331, 350, 315, 355
340, 334, 344, 342
364, 338, 348, 349
344, 396, 356, 344
350, 329, 363, 352
336, 340, 369, 359
347, 333, 387, 318
339, 360, 364, 342
348, 352, 351, 343
379, 332, 338, 321
357, 344, 340, 346
302, 344, 346, 324
339, 333, 374, 348
347, 337, 360, 364
343, 378, 323, 357
365, 314, 352, 315
315, 334, 363, 346
357, 343, 339, 306
333, 345, 353, 373
355, 358, 381, 362
345, 318, 362, 341
371, 342, 340, 321
342, 341, 395, 349
324, 355, 333, 346
376, 348, 353, 332
323, 379, 342, 343
360, 362, 346, 358
323, 327, 355, 355
373, 321, 336, 331
337, 354, 334, 349
357, 342, 357, 343
348, 350, 350, 349
376, 349, 356, 331
390, 380, 354, 311
351, 337, 359, 330
356, 367, 338, 354
342, 348, 365, 330
391, 340, 388, 376
342, 342, 349, 347
325, 373, 318, 369
354, 328, 338, 320
347, 332, 336, 376
347, 333, 347, 364
341, 354, 353, 358
346, 333, 337, 363
325, 374, 344, 369
344, 367, 373, 350
320, 346, 339, 316
360, 370, 342, 349
338, 326, 336, 330
376, 359, 344, 322
354, 355, 374, 347
381, 337, 339, 325
354, 345, 361, 333
396, 342, 381, 363
340, 362, 338, 362
334, 374, 343, 340
303, 357, 353, 347
369, 363, 335, 354
363, 317, 331, 343
344, 329, 356, 359
390, 362, 329, 359
321, 369, 367, 358
350, 324, 351, 368
378, 373, 378, 352
342, 367, 358, 319
336, 325, 351, 379
352, 349, 387, 345
354, 333, 360, 328
384, 366, 352, 346
354, 374, 399, 397
371, 380, 388, 407
363, 359, 364, 393
366, 353, 391, 379
377, 397, 392, 387
376, 350, 399, 398
378, 381, 389, 369
389, 390, 401, 400
396, 413, 398, 397
385, 409, 437, 402
388, 363, 384, 385
404, 403, 377, 381
372, 408, 405, 446
435, 403, 387, 402
420, 386, 422, 429
395, 408, 427, 448
382, 380, 409, 460
434, 390, 371, 409
398, 411, 389, 417
413, 439, 428, 460
428, 412, 388, 424
418, 431, 418, 423
445, 434, 427, 426
451, 420, 449, 461
435, 419, 418, 419
428, 452, 438, 455
425, 457, 450, 464
405, 448, 471, 471
400, 420, 462, 435
446, 488, 459, 475
451, 491, 455, 444
465, 453, 445, 416
457, 453, 471, 457
451, 532, 452, 475
479, 450, 508, 467
458, 456, 472, 474
479, 474, 428, 445
453, 426, 463, 452
498, 465, 491, 436
480, 475, 457, 493
474, 475, 467, 448
484, 476, 534, 512
455, 439, 462, 473
476, 490, 460, 514
450, 490, 468, 479
472, 501, 496, 478
503, 442, 455, 493
518, 460, 476, 442
504, 537, 465, 506
506, 499, 514, 454
476, 521, 496, 488
446, 493, 502, 435
437, 514, 475, 508
452, 508, 527, 520
493, 464, 529, 480
485, 482, 506, 479
528, 523, 521, 458
490, 521, 501, 529
483, 463, 476, 510
489, 553, 478, 488
482, 464, 487, 503
510, 524, 512, 478
495, 514, 533, 491
489, 488, 473, 476
519, 482, 483, 502
514, 505, 478, 513
490, 503, 525, 512
519, 515, 474, 542
537, 498, 547, 514
518, 538, 477, 477
512, 517, 540, 498
532, 545, 516, 520
501, 521, 523, 519
478, 533, 526, 577
524, 484, 544, 528
537, 515, 555, 519
545, 563, 580, 553
556, 617, 559, 549
558, 521, 552, 479
539, 538, 516, 526
535, 536, 553, 507
489, 503, 520, 513
554, 567, 479, 500
536, 492, 512, 588
548, 517, 522, 544
541, 494, 521, 529
539, 577, 537, 522
504, 557, 523, 527
509, 532, 518, 556
566, 552, 520, 542
492, 533, 474, 518
517, 525, 489, 520
534, 570, 522, 548
546, 531, 510, 519
580, 499, 531, 513
539, 594, 568, 509
515, 534, 570, 497
525, 561, 539, 550
549, 531, 575, 571
538, 571, 521, 576
529, 561, 557, 548
550, 564, 517, 508
558, 523, 543, 543
559, 560, 512, 513
510, 523, 530, 538
555, 527, 522, 570
533, 563, 508, 521
560, 531, 539, 563
549, 499, 559, 534
524, 509, 550, 467
513, 543, 510, 529
540, 538, 541, 576
554, 536, 509, 527
568, 534, 552, 543
505, 504, 521, 532
523, 519, 520, 562
498, 509, 520, 470
512, 548, 521, 491
538, 510, 513, 510
524, 532, 531, 525
537, 492, 500, 541
519, 545, 487, 574
496, 542, 532, 487
535, 534, 491, 547
515, 479, 507, 495
511, 521, 512, 518
524, 529, 487, 503
498, 493, 498, 510
531, 493, 530, 517
539, 439, 516, 523
443, 518, 507, 486
462, 463, 473, 442
420, 443, 465, 408
412, 421, 417, 360
391, 409, 393, 400
418, 413, 422, 372
446, 400, 406, 370
375, 423, 408, 400
397, 391, 402, 404
407, 435, 373, 402
423, 421, 425, 379
409, 446, 379, 408
430, 407, 392, 431
376, 368, 437, 397
387, 383, 407, 395
382, 426, 435, 409
415, 396, 390, 401
382, 404, 379, 400
411, 382, 437, 400
418, 381, 372, 429
421, 399, 404, 419
424, 407, 407, 391
414, 387, 391, 397
424, 391, 440, 411
411, 398, 444, 408
393, 408, 418, 374
410, 423, 385, 396
445, 434, 455, 460
496, 518, 520, 520
463, 462, 432, 494
485, 523, 516, 499
466, 407, 451, 446
455, 400, 432, 421
410, 445, 413, 463
446, 371, 440, 411
411, 401, 412, 404
384, 401, 410, 415
441, 443, 428, 426
437, 484, 417, 388
421, 458, 422, 432
408, 388, 409, 427
437, 430, 459, 407
390, 414, 453, 406
451, 403, 420, 440
390, 415, 396, 445
414, 443, 435, 395
427, 416, 405, 380
431, 428, 420, 399
420, 435, 421, 437
445, 430, 441, 436
430, 431, 417, 469
435, 401, 456, 395
382, 466, 412, 430
420, 404, 435, 441
444, 411, 409, 430
429, 450, 441, 425
449, 425, 430, 435
451, 438, 439, 420
425, 452, 443, 426
438, 427, 422, 444
441, 443, 433, 438
435, 456, 398, 436
441, 404, 461, 462
452, 422, 474, 441
432, 475, 427, 437
452, 475, 440, 423
444, 420, 414, 439
436, 426, 486, 443
457, 420, 436, 456
449, 413, 476, 455
431, 450, 449, 420
478, 456, 453, 400
430, 424, 461, 463
438, 457, 433, 416
472, 475, 448, 463
441, 474, 457, 477
447, 466, 415, 433
404, 442, 439, 440
419, 476, 437, 446
456, 430, 449, 433
430, 445, 451, 461
478, 480, 450, 486
451, 451, 491, 441
442, 415, 461, 443
432, 516, 391, 437
435, 484, 500, 456
456, 442, 441, 460
478, 463, 465, 450
467, 480, 454, 463
445, 454, 465, 470
436, 429, 424, 437
429, 445, 422, 460
473, 442, 468, 475
416, 431, 532, 454
434, 442, 452, 465
478, 435, 446, 457
508, 490, 483, 457
475, 483, 449, 458
477, 420, 451, 464
463, 454, 484, 471
429, 474, 458, 461
462, 501, 460, 480
492, 428, 483, 502
474, 501, 479, 486
493, 460, 480, 476
474, 490, 465, 484
464, 443, 486, 469
471, 485, 452, 430
474, 488, 482, 503
457, 477, 463, 451
455, 451, 493, 487
441, 483, 482, 435
475, 477, 493, 544
480, 477, 479, 435
488, 470, 443, 490
486, 463, 489, 451
467, 483, 464, 492
472, 492, 461, 494
479, 485, 526, 482
471, 501, 486, 485
490, 490, 484, 482
460, 473, 493, 480
480, 525, 485, 498
464, 447, 476, 451
488, 491, 484, 516
444, 473, 469, 453
506, 434, 503, 477
483, 506, 486, 490
486, 478, 505, 499
470, 504, 515, 535
510, 501, 486, 502
460, 514, 492, 482
485, 476, 517, 493
518, 505, 492, 491
539, 505, 504, 504
499, 521, 494, 505
542, 530, 495, 506
538, 528, 464, 545
541, 501, 515, 495
501, 511, 501, 533
580, 512, 516, 521
525, 520, 555, 469
500, 556, 528, 508
528, 568, 540, 512
491, 584, 538, 519
538, 558, 569, 566
532, 539, 551, 606
546, 572, 560, 539
555, 551, 558, 622
610, 592, 618, 628
584, 611, 577, 610
624, 621, 577, 621
628, 607, 679, 701
668, 679, 698, 743
678, 688, 750, 696
741, 795, 732, 745
768, 740, 739, 778
735, 782, 802, 794
763, 760, 764, 777
773, 788, 828, 810
836, 772, 779, 782
761, 790, 768, 751
768, 760, 715, 694
756, 775, 729, 741
682, 679, 686, 703
689, 718, 651, 683
647, 675, 677, 637
625, 656, 631, 615
647, 611, 645, 602
638, 607, 588, 574
608, 587, 615, 572
566, 562, 556, 582
550, 538, 544, 580
533, 545, 564, 524
523, 576, 586, 531
549, 518, 547, 572
539, 533, 542, 526
595, 586, 522, 554
539, 529, 582, 561
540, 517, 519, 531
534, 551, 566, 522
512, 579, 562, 578
567, 510, 498, 522
543, 519, 540, 504
509, 545, 562, 552
478, 512, 535, 559
503, 524, 515, 537
561, 529, 564, 551
529, 510, 537, 509
570, 538, 522, 505
552, 488, 540, 542
565, 533, 533, 507
481, 523, 501, 541
532, 550, 504, 555
529, 481, 568, 535
498, 515, 523, 531
546, 496, 521, 512
498, 555, 511, 509
519, 529, 501, 495
482, 531, 546, 524
518, 515, 505, 514
543, 497, 501, 538
490, 550, 516, 545
507, 498, 504, 512
535, 564, 493, 536
502, 538, 510, 523
529, 509, 545, 514
503, 503, 542, 534
512, 516, 490, 506
505, 498, 482, 543
556, 465, 535, 510
512, 515, 515, 558
514, 533, 536, 507
520, 501, 535, 510
492, 556, 488, 525
541, 540, 506, 488
514, 519, 577, 543
484, 475, 561, 479
501, 486, 519, 523
519, 477, 500, 497
533, 505, 521, 488
476, 510, 474, 478
515, 505, 513, 567
507, 532, 488, 535
507, 529, 491, 537
501, 531, 488, 505
503, 490, 507, 527
465, 509, 530, 546
457, 516, 543, 537
535, 583, 529, 530
555, 491, 497, 485
476, 548, 528, 516
482, 495, 550, 497
496, 519, 522, 497
554, 505, 496, 498
527, 529, 507, 508
543, 529, 495, 455
524, 516, 519, 526
494, 514, 521, 539
490, 510, 545, 530
508, 570, 466, 555
482, 497, 519, 483
507, 509, 531, 508
467, 516, 526, 480
487, 512, 489, 508
519, 490, 485, 530
522, 551, 516, 514
516, 546, 509, 536
550, 545, 517, 484
470, 487, 523, 529
487, 500, 548, 489
520, 495, 520, 478
481, 532, 490, 520
539, 518, 459, 508
480, 501, 510, 496
518, 485, 526, 476
529, 494, 474, 530
511, 493, 501, 511
501, 532, 506, 464
506, 486, 479, 469
543, 520, 501, 504
487, 490, 483, 472
497, 480, 479, 532
509, 486, 529, 500
523, 531, 494, 486
498, 542, 525, 557
503, 482, 520, 502
484, 491, 503, 512
480, 494, 498, 492
472, 524, 517, 539
485, 470, 491, 484
528, 493, 496, 478
509, 474, 519, 473
513, 532, 552, 527
488, 520, 525, 495
525, 516, 540, 509
505, 507, 502, 490
540, 509, 496, 524
503, 539, 497, 537
464, 508, 477, 502
548, 490, 495, 524
523, 500, 494, 516
523, 512, 512, 507
482, 491, 501, 475
498, 529, 487, 537
525, 522, 511, 520
485, 499, 494, 484
526, 487, 496, 529
525, 509, 531, 520
493, 537, 492, 527
502, 490, 490, 544
493, 477, 523, 505
523, 473, 492, 512
491, 491, 520, 485
487, 485, 513, 487
546, 487, 474, 517
541, 510, 526, 525
513, 497, 489, 517
527, 478, 532, 507
471, 485, 487, 501
514, 534, 510, 510
501, 539, 509, 551
546, 542, 498, 535
553, 579, 539, 557
566, 589, 559, 565
610, 620, 578, 599
636, 608, 652, 593
682, 649, 674, 710
687, 673, 768, 753
771, 761, 827, 821
861, 885, 931, 959
1008, 1038, 1064, 1134
1213, 1118, 1229, 1291
1306, 1404, 1385, 1372
1390, 1413, 1393, 1309
1327, 1372, 1325, 1255
1284, 1262, 1153, 1129
1221, 1053, 1021, 1018
961, 964, 875, 845
817, 767, 748, 722
712, 696, 686, 700
643, 656, 666, 640
626, 584, 578, 574
567, 589, 587, 576
525, 569, 554, 552
555, 553, 519, 521
551, 528, 555, 523
509, 496, 504, 491
471, 521, 527, 525
499, 488, 501, 487
488, 513, 553, 540
467, 516, 484, 476
475, 517, 487, 512
497, 520, 497, 461
476, 486, 521, 537
488, 502, 500, 515
453, 512, 502, 506
460, 483, 474, 445
513, 495, 536, 510
449, 452, 500, 519
469, 521, 499, 488
464, 483, 458, 470
468, 467, 488, 493
471, 485, 460, 424
470, 505, 469, 491
486, 487, 465, 503
471, 470, 477, 478
515, 491, 442, 508
498, 459, 490, 467
477, 456, 483, 464
470, 424, 503, 454
475, 449, 485, 494
479, 471, 496, 477
460, 467, 465, 472
464, 481, 464, 481
485, 486, 483, 472
506, 544, 463, 486
457, 512, 472, 448
469, 467, 478, 433
472, 469, 461, 459
470, 458, 489, 475
502, 487, 428, 505
512, 494, 470, 472
464, 480, 498, 477
496, 477, 505, 443
465, 508, 488, 446
455, 448, 487, 454
428, 429, 450, 456
446, 461, 437, 441
462, 445, 487, 464
475, 458, 443, 456
472, 462, 450, 428
478, 468, 424, 469
443, 510, 504, 450
456, 455, 454, 445
477, 469, 453, 454
441, 439, 457, 494
487, 440, 452, 430
477, 431, 470, 459
449, 445, 455, 505
465, 478, 410, 435
472, 513, 427, 473
453, 483, 442, 446
443, 440, 425, 464
443, 430, 441, 499
423, 488, 420, 410
457, 438, 440, 452
436, 444, 424, 492
447, 447, 461, 475
461, 467, 424, 440
441, 461, 454, 439
435, 486, 464, 427
480, 469, 474, 468
445, 455, 479, 470
485, 465, 442, 462
469, 453, 442, 449
488, 491, 510, 542
498, 508, 489, 509
507, 478, 476, 445
493, 469, 429, 426
455, 457, 468, 436
480, 443, 411, 468
430, 428, 470, 463
457, 493, 421, 433
462, 438, 386, 467
444, 467, 445, 414
452, 407, 409, 429
463, 409, 427, 438
407, 459, 405, 437
453, 432, 451, 437
454, 426, 404, 449
456, 472, 444, 425
447, 460, 417, 422
422, 448, 466, 452
461, 458, 431, 452
442, 406, 442, 405
429, 443, 486, 447
450, 425, 449, 447
427, 434, 433, 458
436, 447, 464, 405
399, 428, 431, 503
437, 400, 422, 434
422, 427, 428, 446
480, 413, 417, 412
428, 440, 433, 404
416, 414, 431, 428
416, 416, 436, 400
431, 412, 407, 409
406, 451, 423, 427
409, 411, 440, 396
427, 388, 406, 417
439, 447, 414, 436
420, 422, 417, 425
426, 408, 376, 422
398, 387, 447, 404
384, 424, 438, 433
411, 437, 436, 431
411, 458, 423, 410
423, 406, 431, 452
406, 441, 411, 422
411, 426, 401, 421
376, 375, 413, 390
390, 384, 422, 387
437, 383, 421, 414
415, 396, 435, 441
409, 413, 444, 411
441, 415, 494, 414
418, 437, 418, 408
471, 405, 429, 379
417, 427, 431, 452
379, 437, 393, 395
416, 386, 430, 390
397, 431, 379, 403
419, 431, 419, 421
398, 390, 414, 423
423, 425, 424, 421
430, 407, 383, 411
418, 441, 412, 385
397, 438, 394, 405
443, 416, 426, 411
435, 401, 431, 404
429, 412, 396, 410
427, 396, 441, 428
373, 435, 367, 388
410, 400, 410, 420
401, 397, 384, 402
431, 399, 420, 429
420, 383, 410, 416
432, 387, 400, 391
427, 398, 416, 394
397, 403, 385, 396
399, 408, 431, 397
397, 410, 391, 405
392, 404, 402, 420
432, 412, 418, 393
415, 401, 431, 408
380, 435, 412, 425
407, 384, 378, 401
412, 415, 370, 394
426, 364, 434, 430
422, 384, 428, 419
376, 406, 402, 411
400, 422, 379, 426
405, 408, 418, 416
382, 421, 409, 426
383, 403, 400, 412
387, 415, 416, 393
419, 410, 396, 373
360, 367, 424, 414
414, 400, 395, 421
421, 399, 349, 421
376, 443, 374, 377
429, 385, 418, 420
365, 382, 377, 413
385, 377, 385, 411
393, 409, 384, 399
420, 368, 407, 385
404, 435, 421, 388
381, 395, 412, 404
348, 424, 398, 379
419, 408, 408, 392
356, 414, 414, 416
408, 412, 408, 345
369, 380, 394, 420
373, 424, 389, 399
395, 380, 354, 429
421, 440, 394, 394
391, 370, 429, 423
414, 388, 404, 435
375, 397, 420, 418
421, 401, 385, 377
400, 387, 393, 414
370, 450, 430, 398
383, 432, 401, 389
382, 390, 383, 391
402, 396, 377, 383
398, 395, 359, 428
407, 437, 382, 372
393, 387, 380, 395
404, 416, 386, 380
402, 386, 390, 394
398, 362, 368, 348
400, 410, 417, 388
368, 414, 384, 390
380, 393, 370, 410
389, 403, 402, 415
379, 396, 365, 381
375, 367, 371, 378
399, 398, 409, 381
398, 375, 386, 401
368, 371, 378, 394
420, 373, 381, 407
389, 391, 408, 397
383, 377, 392, 393
398, 379, 364, 388
414, 436, 367, 358
402, 372, 384, 385
386, 414, 387, 385
403, 375, 362, 338
384, 416, 357, 382
375, 379, 368, 378
393, 379, 370, 397
411, 375, 389, 389
405, 408, 400, 353
371, 400, 390, 413
367, 381, 366, 374
382, 375, 377, 390
378, 360, 383, 373
402, 377, 426, 374
396, 388, 376, 340
350, 370, 398, 396
392, 425, 397, 362
411, 372, 368, 374
384, 341, 356, 384
383, 365, 400, 383
362, 366, 402, 363
404, 354, 368, 355
362, 393, 392, 392
374, 370, 394, 338
386, 372, 402, 368
380, 392, 349, 362
391, 356, 364, 382
384, 402, 340, 387
385, 398, 358, 362
379, 382, 430, 372
365, 389, 389, 389
398, 402, 385, 414
398, 472, 397, 433
444, 480, 477, 443
401, 424, 385, 356
416, 423, 364, 392
391, 391, 352, 386
381, 377, 400, 352
379, 378, 345, 376
373, 370, 379, 396
345, 365, 358, 403
393, 358, 337, 331
378, 376, 348, 338
348, 375, 364, 387
366, 388, 392, 373
355, 414, 415, 388
391, 343, 346, 348
331, 371, 397, 344
385, 399, 361, 373
352, 383, 368, 398
396, 373, 385, 381
379, 369, 403, 407
356, 354, 381, 363
417, 379, 345, 369
406, 371, 359, 373
379, 383, 374, 363
408, 382, 322, 380
370, 380, 346, 342
365, 393, 383, 373
368, 381, 350, 356
371, 360, 391, 392
377, 370, 400, 365
370, 344, 379, 348
365, 343, 373, 374
368, 384, 388, 363
374, 367, 340, 373
341, 394, 376, 361
369, 349, 367, 382
355, 380, 380, 379
358, 364, 378, 360
361, 381, 368, 380
380, 340, 345, 365
367, 348, 368, 363
375, 400, 379, 398
372, 383, 382, 385
370, 359, 371, 412
430, 434, 461, 437
497, 519, 483, 496
488, 464, 403, 412
412, 396, 390, 375
351, 363, 387, 376
406, 369, 424, 359
395, 404, 395, 381
345, 361, 358, 379
344, 340, 339, 386
327, 377, 374, 389
371, 356, 387, 369
378, 393, 378, 398
387, 400, 342, 362
376, 372, 381, 403
351, 381, 383, 372
362, 372, 365, 352
356, 394, 368, 373
387, 390, 360, 353
367, 352, 354, 381
340, 359, 335, 353
370, 347, 351, 362
345, 365, 356, 377
386, 372, 366, 358
335, 373, 371, 356
364, 380, 387, 407
355, 346, 371, 375
344, 361, 352, 361
386, 374, 360, 341
329, 347, 349, 378
386, 330, 347, 352
389, 368, 357, 386
368, 393, 336, 372
348, 347, 350, 376
347, 385, 383, 344
361, 372, 390, 360
378, 330, 371, 341
355, 401, 338, 363
336, 359, 358, 339
369, 327, 345, 365
356, 364, 383, 352
349, 335, 406, 349
371, 349, 358, 367
324, 345, 344, 359
359, 330, 358, 332
377, 372, 391, 334
386, 366, 364, 366
353, 340, 381, 327
345, 373, 356, 393
354, 362, 330, 402
323, 354, 374, 344
339, 348, 367, 361
338, 383, 316, 354
345, 350, 347, 345
317, 342, 394, 355
357, 338, 362, 352
339, 329, 342, 331
352, 338, 342, 353
334, 339, 358, 333
357, 346, 339, 359
341, 344, 352, 333
326, 359, 385, 337
357, 330, 341, 346
344, 362, 350, 387
327, 377, 396, 367
360, 356, 338, 332
351, 352, 339, 350
361, 373, 343, 347
404, 364, 333, 376
333, 329, 326, 337
367, 344, 308, 374
338, 366, 347, 382
359, 372, 344, 346
380, 336, 391, 374
345, 327, 383, 389
367, 362, 362, 354
376, 334, 375, 390
359, 330, 369, 348
363, 334, 366, 359
345, 365, 366, 337
346, 354, 363, 376
364, 357, 347, 347
391, 356, 359, 361
366, 354, 321, 363
370, 404, 327, 369
350, 344, 366, 399
333, 375, 347, 354
361, 368, 335, 356
360, 393, 344, 363
359, 353, 315, 368
362, 335, 378, 345
372, 354, 373, 386
371, 328, 313, 354
350, 373, 361, 391
356, 356, 333, 343
359, 353, 360, 390
341, 340, 377, 374
354, 327, 383, 345
347, 376, 327, 366
318, 337, 368, 365
345, 372, 326, 360
381, 369, 370, 358
368, 360, 330, 351
382, 356, 326, 373
355, 393, 359, 393
342, 342, 371, 341
358, 363, 385, 369
367, 335, 323, 341
362, 342, 327, 344
408, 328, 350, 344
322, 381, 357, 370
363, 362, 348, 354
395, 359, 393, 343
333, 358, 365, 339
367, 335, 371, 362
342, 287, 317, 330
366, 357, 357, 314
382, 354, 374, 377
368, 340, 361, 347
355, 366, 378, 373
376, 399, 375, 393
376, 391, 388, 441
437, 476, 461, 514
445, 502, 416, 443
402, 427, 387, 421
397, 413, 404, 405
397, 399, 445, 396
399, 403, 428, 415
408, 383, 382, 437
428, 476, 409, 439
419, 434, 435, 460
468, 486, 532, 554
546, 563, 573, 609
704, 736, 775, 771
1005, 1192, 1387, 1724
2264, 2829, 3739, 4778
5624, 6087, 5992, 5617
4957, 3784, 2811, 2160
1710, 1417, 1212, 1056
932, 802, 725, 699
638, 619, 603, 578
565, 507, 539, 532
513, 483, 493, 444
503, 509, 497, 467
432, 453, 433, 444
448, 452, 439, 393
412, 454, 403, 428
444, 418, 429, 427
405, 452, 421, 379
394, 421, 394, 398
413, 421, 373, 404
422, 390, 350, 384
379, 366, 395, 388
380, 412, 404, 408
408, 393, 419, 400
417, 414, 361, 406
383, 414, 390, 372
413, 398, 379, 382
396, 395, 402, 386
383, 405, 394, 357
412, 382, 368, 389
363, 353, 372, 377
386, 405, 377, 371
409, 353, 368, 390
395, 387, 359, 393
345, 388, 395, 375
370, 399, 365, 386
388, 367, 364, 417
391, 386, 422, 424
363, 409, 402, 400
409, 377, 351, 367
394, 380, 369, 388
373, 377, 381, 387
370, 379, 365, 371
388, 389, 354, 391
441, 395, 400, 378
376, 401, 420, 390
389, 378, 376, 401
421, 356, 411, 369
383, 363, 390, 396
405, 366, 390, 397
386, 358, 381, 401
372, 378, 405, 371
378, 398, 383, 365
398, 388, 381, 348
385, 376, 353, 387
393, 364, 383, 386
387, 402, 386, 395
373, 380, 342, 376
367, 393, 385, 336
359, 360, 371, 371
405, 361, 391, 413
421, 384, 394, 367
370, 402, 356, 376
390, 390, 364, 400
432, 397, 377, 411
383, 370, 405, 383
385, 418, 390, 395
382, 387, 381, 380
401, 359, 363, 383
387, 355, 385, 399
398, 407, 399, 446
375, 376, 401, 390
406, 424, 414, 409
451, 450, 412, 389
419, 433, 425, 447
437, 415, 451, 474
454, 501, 449, 440
463, 487, 476, 469
450, 450, 436, 424
479, 467, 496, 469
485, 420, 507, 457
463, 490, 474, 486
413, 434, 427, 496
437, 448, 451, 441
432, 389, 414, 471
402, 444, 440, 421
446, 396, 425, 447
428, 383, 352, 420
415, 350, 385, 369
444, 364, 386, 353
389, 394, 360, 389
359, 390, 371, 391
384, 395, 384, 370
394, 391, 406, 392
421, 373, 369, 425
409, 387, 386, 369
427, 388, 416, 347
376, 395, 428, 402
387, 419, 381, 380
373, 370, 382, 410
379, 351, 385, 399
341, 365, 342, 334
353, 365, 360, 346
361, 348, 413, 373
349, 394, 393, 350
431, 371, 398, 353
363, 394, 397, 450
371, 403, 411, 429
417, 426, 395, 412
432, 404, 492, 455
478, 499, 423, 424
420, 404, 417, 442
447, 410, 373, 394
408, 394, 388, 373
391, 391, 389, 380
370, 369, 378, 378
370, 398, 427, 392
363, 399, 392, 374
371, 377, 401, 394
422, 375, 399, 423
415, 410, 385, 381
422, 441, 439, 449
470, 466, 503, 481
564, 548, 628, 573
688, 687, 855, 833
946, 998, 990, 1031
1088, 1025, 1036, 1018
1016, 1009, 965, 1047
1002, 1001, 1013, 1004
979, 1024, 1012, 1024
943, 1014, 1022, 964
990, 1028, 1001, 1057
978, 1007, 1053, 1009
999, 999, 1036, 1029
984, 1011, 1015, 1018
1042, 959, 981, 1020
1040, 1086, 1024, 1005
1037, 1024, 1069, 999
1011, 1088, 972, 1008
1030, 1022, 1125, 1066
1035, 999, 1018, 1109
1051, 1014, 1050, 1054
989, 1029, 1044, 962
1022, 990, 995, 1036
1037, 1061, 1071, 1054
1106, 1076, 1086, 989
979, 1048, 990, 1022
1004, 1086, 1016, 1047
1043, 989, 1044, 1023
1051, 1071, 1122, 1087
1040, 1077, 1083, 1064
1016, 1055, 1065, 1058
1079, 1112, 1079, 1101
1082, 1040, 1055, 1061
1097, 1047, 1077, 1101
1063, 1089, 1127, 1150
1139, 1132, 1114, 1143
1137, 1081, 1114, 1087
1074, 1159, 1138, 1137
1126, 1134, 1127, 1138
1096, 1133, 1165, 1200
1152, 1142, 1133, 1110
1227, 1142, 1226, 1189
1214, 1252, 1252, 1195
1228, 1213, 1188, 1226
1203, 1243, 1256, 1288
1291, 1282, 1278, 1295
1275, 1303, 1273, 1310
1319, 1354, 1327, 1362
1370, 1346, 1417, 1402
1371, 1384, 1417, 1381
1423, 1512, 1437, 1530
1449, 1490, 1499, 1510
1594, 1558, 1562, 1568
1630, 1707, 1607, 1646
1709, 1775, 1806, 1824
1898, 1858, 1946, 1872
1984, 2016, 2049, 2127
2118, 2174, 2238, 2343
2320, 2548, 2569, 2691
2806, 3078, 3250, 3449
3872, 4119, 4407, 4933
5142, 5939, 6209, 6335
6620, 6763, 6935, 7136
6900, 6957, 6903, 7103
6870, 7356, 7608, 8472
9460, 11024, 12679, 14723
16572, 18373, 20316, 21904
23954, 26187, 29115, 33174
37996, 45405, 56275, 72604
96970, 141050, 232181, 386520
548865, 660021, 717569, 676398
535705, 364166, 226490, 147769
100384, 74933, 59831, 52024
47594, 47492, 50442, 57576
71416, 100170, 151722, 218341
268600, 299078, 302957, 281479
230410, 161801, 106386, 69413
47886, 35267, 27346, 22150
18112, 15759, 13756, 11884
10484, 9128, 8137, 7575
7151, 6509, 6034, 5654
5239, 5127, 4882, 4478
4234, 4177, 3954, 3802
3560, 3473, 3444, 3237
3156, 3047, 2913, 2928
2704, 2665, 2715, 2623
2626, 2408, 2415, 2458
2311, 2200, 2284, 2221
2150, 2200, 2056, 2060
2022, 1951, 1925, 1940
1888, 1845, 1811, 1848
1783, 1746, 1722, 1764
1773, 1776, 1714, 1683
1657, 1625, 1498, 1656
1572, 1521, 1473, 1526
1562, 1497, 1513, 1603
1465, 1466, 1459, 1447
1506, 1448, 1419, 1457
1382, 1419, 1364, 1410
1306, 1312, 1337, 1247
1278, 1335, 1254, 1304
1265, 1321, 1266, 1204
1226, 1198, 1261, 1193
1228, 1246, 1177, 1185
1192, 1157, 1137, 1174
1137, 1144, 1237, 1127
1161, 1151, 1151, 1119
1124, 1119, 1086, 1087
1080, 1094, 1108, 1089
1112, 1064, 1120, 1051
1051, 1127, 1102, 1054
1055, 1098, 1022, 984
1061, 1086, 1033, 1030
1020, 1020, 997, 1034
957, 1054, 1017, 958
1048, 1010, 987, 1004
1000, 991, 1026, 939
987, 934, 924, 958
974, 943, 963, 946
984, 965, 950, 965
990, 947, 931, 916
966, 954, 909, 962
959, 900, 956, 904
854, 945, 904, 898
930, 903, 932, 841
934, 935, 885, 922
848, 849, 872, 844
896, 829, 874, 893
926, 931, 842, 829
843, 852, 874, 908
870, 881, 879, 865
895, 845, 899, 836
859, 860, 863, 839
899, 885, 879, 861
864, 872, 867, 807
875, 795, 898, 870
718, 791, 814, 787
810, 856, 852, 793
848, 827, 887, 825
793, 897, 800, 820
818, 803, 831, 857
820, 784, 806, 824
806, 775, 802, 834
812, 782, 791, 859
861, 810, 796, 772
823, 785, 836, 787
781, 840, 803, 796
771, 791, 797, 777
830, 763, 805, 777
815, 819, 743, 764
728, 776, 795, 784
768, 782, 759, 808
768, 761, 765, 793
804, 784, 750, 777
767, 772, 800, 776
786, 746, 705, 814
722, 809, 760, 750
779, 737, 733, 747
766, 711, 769, 762
728, 739, 734, 659
742, 794, 736, 732
718, 718, 709, 695
799, 718, 733, 714
722, 691, 716, 696
739, 749, 730, 751
710, 714, 782, 759
697, 722, 722, 782
694, 732, 732, 713
741, 717, 696, 801
754, 724, 707, 686
710, 742, 728, 724
717, 710, 754, 702
691, 690, 750, 699
753, 715, 711, 677
717, 676, 700, 688
714, 713, 709, 669
720, 728, 682, 654
685, 722, 722, 704
660, 708, 728, 710
703, 665, 703, 647
664, 700, 670, 709
626, 650, 669, 677
678, 716, 745, 678
676, 708, 707, 709
670, 668, 682, 733
661, 733, 684, 677
715, 692, 660, 698
642, 688, 676, 642
679, 655, 679, 696
692, 639, 682, 631
668, 697, 670, 659
678, 722, 663, 678
669, 733, 663, 662
643, 680, 651, 697
634, 666, 686, 696
671, 659, 721, 700
661, 662, 668, 677
665, 725, 645, 659
619, 620, 662, 667
622, 661, 684, 665
649, 641, 618, 685
668, 691, 653, 658
652, 688, 612, 680
623, 646, 665, 641
620, 629, 720, 635
639, 672, 644, 654
631, 617, 676, 656
633, 613, 687, 661
586, 629, 611, 613
622, 700, 698, 633
617, 693, 627, 632
678, 621, 687, 628
645, 665, 664, 639
650, 674, 625, 591
617, 616, 650, 645
610, 640, 594, 627
673, 667, 621, 652
673, 631, 647, 667
628, 636, 649, 622
638, 649, 595, 655
655, 609, 646, 632
644, 616, 631, 684
636, 637, 629, 668
583, 632, 617, 659
633, 668, 634, 622
670, 620, 612, 660
605, 630, 654, 601
657, 631, 625, 620
608, 593, 638, 647
660, 653, 592, 621
638, 636, 615, 602
561, 595, 635, 616
613, 630, 659, 650
554, 617, 607, 581
666, 569, 600, 605
611, 601, 617, 599
663, 606, 592, 635
621, 604, 620, 627
606, 608, 601, 622
611, 613, 658, 580
623, 547, 634, 611
573, 616, 606, 570
611, 650, 629, 573
621, 616, 639, 580
602, 629, 589, 666
620, 613, 588, 597
644, 625, 605, 676
627, 593, 630, 616
596, 620, 636, 599
632, 637, 609, 649
675, 620, 622, 625
655, 596, 621, 629
638, 634, 624, 606
611, 604, 624, 599
626, 618, 575, 631
616, 623, 601, 629
611, 628, 594, 570
630, 627, 595, 611
614, 626, 572, 612
585, 624, 629, 605
627, 571, 560, 614
582, 606, 613, 594
557, 627, 592, 604
618, 578, 563, 568
583, 578, 603, 587
600, 616, 588, 582
656, 562, 609, 592
613, 569, 587, 591
605, 572, 611, 612
609, 617, 589, 582
594, 597, 522, 623
579, 632, 607, 589
596, 584, 574, 601
644, 588, 620, 608
555, 594, 570, 581
563, 557, 558, 624
587, 610, 556, 590
549, 558, 562, 615
575, 587, 524, 547
574, 606, 575, 574
599, 549, 552, 577
554, 588, 546, 551
580, 639, 535, 595
592, 565, 614, 578
612, 564, 635, 583
547, 559, 591, 518
541, 548, 575, 547
608, 548, 563, 577
560, 566, 599, 545
568, 581, 557, 529
538, 541, 564, 582
561, 548, 612, 553
618, 565, 566, 613
525, 612, 560, 584
546, 594, 601, 527
536, 549, 547, 560
554, 554, 563, 566
523, 580, 595, 569
529, 560, 565, 553
527, 553, 580, 607
557, 556, 546, 548
556, 554, 555, 547
548, 551, 586, 510
567, 553, 547, 527
550, 585, 543, 558
593, 593, 577, 534
574, 563, 565, 548
581, 529, 531, 596
570, 546, 548, 568
577, 571, 528, 566
581, 549, 610, 540
605, 531, 536, 546
527, 560, 547, 545
529, 530, 559, 528
529, 557, 542, 518
547, 519, 526, 547
544, 527, 598, 564
522, 546, 540, 539
554, 547, 530, 544
569, 542, 549, 538
549, 523, 523, 553
552, 491, 511, 583
535, 540, 550, 549
525, 539, 528, 516
525, 520, 510, 549
556, 545, 520, 550
519, 542, 545, 575
592, 556, 504, 537
506, 529, 546, 509
480, 531, 543, 515
502, 555, 487, 510
540, 510, 505, 550
539, 560, 503, 536
508, 489, 570, 487
535, 545, 522, 501
524, 495, 531, 540
519, 542, 533, 532
508, 525, 534, 527
560, 547, 573, 560
515, 583, 532, 555
571, 557, 531, 529
542, 581, 548, 532
570
*END

*EOF
